Current,R_R,R_G,R_B,R_L,G_R,G_G,G_B,G_L,B_R,B_G,B_B,B_L
1,153.600006,48.0,0.0,0.5332,230.399994,672.0,26.0,3.6292,0.0,112.0,364.0,2.5026
2,307.200012,72.0,0.0,0.9116,326.399994,1008.0,62.400002,5.4352,19.200001,168.0,582.400024,4.0936
3,422.399994,112.0,0.0,1.2986,441.600006,1328.0,83.199997,7.3272,0.0,240.0,832.0,5.7362
4,576.0,144.0,0.0,1.72,537.599976,1632.0,104.0,9.0472,19.200001,304.0,1050.400024,7.3616
5,710.400024,192.0,0.0,2.1242,633.599976,1928.0,98.800003,10.6468,19.200001,372.0,1279.199951,8.9526
6,844.799988,216.0,0.0,2.5628,710.400024,2212.0,135.199997,12.255,57.599998,440.0,1508.0,10.5608
7,998.400024,264.0,0.0,3.0272,825.599976,2496.0,156.0,13.9664,57.599998,504.0,1726.400024,12.1174
8,1152.0,296.0,0.0,3.4142,883.200012,2760.0,176.800003,15.566,38.400002,584.0,1955.199951,13.6912
9,1305.599976,336.0,0.0,3.913,960.0,3024.0,213.199997,17.079599,38.400002,636.0,2184.0,15.2908
10,1440.0,376.0,0.0,4.3516,1056.0,3296.0,228.800003,18.5502,86.400002,712.0,2397.199951,16.77
11,1593.599976,416.0,0.0,4.7472,1132.800049,3536.0,249.600006,20.003599,96.0,784.0,2610.399902,18.249201
12,1728.0,456.0,0.0,5.246,1190.400024,3800.0,260.0,21.4312,76.800003,832.0,2839.199951,19.711201
13,1881.599976,496.0,0.0,5.6588,1248.0,4016.0,280.799988,22.8416,115.199997,888.0,3036.800049,21.190399
14,2016.0,552.0,0.0,6.1232,1324.800049,4256.0,291.200012,24.174601,115.199997,952.0,3244.800049,22.618
15,2188.800049,576.0,0.0,6.5446,1382.400024,4460.0,343.200012,25.4216,96.0,1008.0,3442.399902,24.0284
16,2323.199951,616.0,0.0,7.0004,1459.199951,4680.0,343.200012,26.8578,115.199997,1072.0,3640.0,25.378599
17,2476.800049,656.0,0.0,7.4734,1516.800049,4912.0,364.0,28.1306,115.199997,1128.0,3863.600098,26.8664
18,2630.399902,692.0,0.0,7.9206,1593.599976,5136.0,390.0,29.506599,124.800003,1192.0,4076.800049,28.156401
19,2784.0,728.0,0.0,8.3764,1632.0,5328.0,405.600006,30.753599,134.399994,1240.0,4264.0,29.618401
20,2918.399902,768.0,0.0,8.8236,1708.800049,5528.0,426.399994,32.0522,144.0,1304.0,4451.200195,30.9342
21,3072.0,800.0,10.4,9.2794,1766.400024,5728.0,436.799988,33.3078,153.600006,1360.0,4654.0,32.344601
22,3216.0,856.0,0.0,9.761,1824.0,5960.0,468.0,34.511799,172.800003,1416.0,4872.399902,33.6432
23,3360.0,888.0,0.0,10.2082,1843.199951,6172.0,478.399994,35.784599,192.0,1468.0,5033.600098,34.9762
24,3513.600098,928.0,10.4,10.6554,1920.0,6360.0,499.200012,36.9972,211.199997,1512.0,5252.0,36.292
25,3667.199951,960.0,5.2,11.1198,1996.800049,6528.0,530.400024,38.209801,192.0,1564.0,5423.600098,37.6422
26,3840.0,1008.0,5.2,11.5756,2025.599976,6736.0,509.600006,39.396599,172.800003,1632.0,5610.799805,38.889198
27,3916.800049,1048.0,0.0,12.0314,2073.600098,6928.0,551.200012,40.6264,192.0,1696.0,5798.0,40.256599
28,4128.0,1080.0,0.0,12.4528,2112.0,7100.0,582.400024,41.8218,211.199997,1744.0,6011.200195,41.366001
29,4243.200195,1128.0,10.4,12.9344,2188.800049,7304.0,598.0,42.914001,192.0,1792.0,6167.200195,42.6646
30,4396.799805,1160.0,0.0,13.3644,2227.199951,7480.0,613.599976,43.817001,211.199997,1828.0,6344.0,44.014801
31,4531.200195,1196.0,0.0,13.717,2284.800049,7656.0,624.0,45.124199,230.399994,1896.0,6500.0,44.917801
32,4684.799805,1232.0,0.0,14.1298,2323.199951,7808.0,639.599976,46.096001,230.399994,1940.0,6650.799805,46.285198
33,4780.799805,1272.0,5.2,14.7146,2361.600098,8016.0,660.400024,47.342999,249.600006,1984.0,6874.399902,47.523602
34,4992.0,1320.0,0.0,15.093,2438.399902,8208.0,686.400024,48.4352,211.199997,2048.0,7025.200195,48.684601
35,5145.600098,1368.0,5.2,15.5832,2467.199951,8356.0,696.799988,49.493,249.600006,2088.0,7217.600098,49.948799
36,5260.799805,1400.0,5.2,16.021799,2496.0,8528.0,728.0,50.559399,249.600006,2152.0,7373.600098,51.144199
37,5395.200195,1424.0,5.2,16.469,2572.800049,8696.0,738.400024,51.643002,268.799988,2200.0,7586.799805,52.2192
38,5568.0,1472.0,0.0,16.9592,2592.0,8880.0,759.200012,52.683601,249.600006,2256.0,7716.799805,53.3974
39,5702.399902,1504.0,5.2,17.3806,2649.600098,9024.0,748.799988,53.7672,268.799988,2304.0,7898.799805,54.610001
40,5875.200195,1552.0,10.4,17.802,2707.199951,9196.0,800.799988,54.738998,268.799988,2348.0,8034.0,55.822601
41,6028.799805,1584.0,15.6,18.3008,2745.600098,9368.0,811.200012,55.762402,268.799988,2376.0,8236.799805,56.9664
42,6163.200195,1616.0,0.0,18.7738,2784.0,9520.0,826.799988,56.785801,307.200012,2448.0,8398.0,58.1618
43,6316.799805,1664.0,10.4,19.177999,2822.399902,9672.0,847.599976,57.8092,307.200012,2504.0,8580.0,59.2798
44,6470.399902,1696.0,5.2,19.6768,2860.800049,9816.0,868.400024,58.8498,288.0,2544.0,8725.599609,60.3032
45,6624.0,1744.0,5.2,20.0982,2918.399902,9976.0,889.200012,59.847401,326.399994,2584.0,8892.0,61.429798
46,6758.399902,1784.0,20.799999,20.4594,2956.800049,10152.0,899.599976,60.913799,326.399994,2628.0,9032.400391,62.590801
47,6912.0,1812.0,10.4,21.0012,2976.0,10296.0,930.799988,61.7136,326.399994,2668.0,9214.400391,63.691601
48,7008.0,1836.0,10.4,21.371,3014.399902,10448.0,946.400024,62.7714,326.399994,2728.0,9386.0,64.723602
49,7200.0,1880.0,10.4,21.8612,3072.0,10580.0,967.200012,63.812,307.200012,2760.0,9536.799805,65.9104
50,7372.799805,1916.0,10.4,22.3514,3100.800049,10736.0,972.400024,64.628998,326.399994,2824.0,9708.400391,66.942398
51,7468.799805,1956.0,10.4,22.712601,3148.800049,10896.0,993.200012,65.5578,326.399994,2868.0,9854.0,67.974403
52,7632.0,2008.0,0.0,23.1856,3187.199951,11040.0,1008.799988,66.598396,326.399994,2920.0,10025.599609,69.126801
53,7795.200195,2024.0,10.4,23.6672,3225.600098,11188.0,1019.200012,67.5186,345.600006,2968.0,10192.0,70.244797
54,7929.600098,2064.0,5.2,24.105801,3244.800049,11316.0,1050.400024,68.447403,364.799988,2996.0,10337.599609,71.199402
55,8064.0,2128.0,15.6,24.5874,3292.800049,11464.0,1071.199951,69.350403,364.799988,3056.0,10420.799805,72.317398
56,8217.599609,2148.0,5.2,25.008801,3360.0,11596.0,1092.0,70.459801,345.600006,3104.0,10613.200195,73.358002
57,8352.0,2180.0,10.4,25.455999,3379.199951,11756.0,1107.599976,71.379997,384.0,3144.0,10738.0,74.398598
58,8505.599609,2224.0,15.6,25.886,3417.600098,11880.0,1112.800049,72.334602,364.799988,3192.0,10940.799805,75.378998
59,8611.200195,2264.0,0.0,26.290199,3456.0,12048.0,1133.599976,73.125801,384.0,3228.0,11081.200195,76.600197
60,8764.799805,2288.0,0.0,26.771799,3475.199951,12184.0,1149.199951,74.063202,374.399994,3272.0,11216.400391,77.511803
61,8832.0,2344.0,5.2,27.219,3532.800049,12324.0,1170.0,74.914597,384.0,3336.0,11398.400391,78.595398
62,9062.400391,2368.0,5.2,27.623199,3552.0,12460.0,1196.0,75.808998,422.399994,3360.0,11538.799805,79.593002
63,9187.200195,2408.0,15.6,28.1134,3609.600098,12576.0,1222.0,76.7034,403.200012,3404.0,11679.200195,80.7024
64,9369.599609,2460.0,5.2,28.4918,3619.199951,12684.0,1227.199951,77.614998,403.200012,3468.0,11845.599609,81.708603
65,9494.400391,2464.0,0.0,28.999201,3686.399902,12820.0,1227.199951,78.285797,422.399994,3492.0,11996.400391,82.809402
66,9638.400391,2512.0,5.2,29.420601,3705.600098,12956.0,1242.800049,79.309196,432.0,3548.0,12152.400391,83.764
67,9753.599609,2564.0,5.2,29.902201,3724.800049,13104.0,1268.800049,80.160599,422.399994,3576.0,12266.799805,84.692802
68,9945.599609,2576.0,15.6,30.3494,3763.199951,13244.0,1294.800049,81.072197,422.399994,3636.0,12417.599609,85.741997
69,10051.200195,2620.0,0.0,30.7278,3801.600098,13368.0,1315.599976,81.734398,451.200012,3688.0,12578.799805,86.903
70,10195.200195,2660.0,15.6,31.166401,3840.0,13496.0,1310.400024,82.732002,422.399994,3704.0,12714.0,87.720001
71,10320.0,2688.0,20.799999,31.6308,3878.399902,13624.0,1346.800049,83.549004,441.600006,3768.0,12854.400391,88.734802
72,10454.400391,2712.0,5.2,32.138199,3916.800049,13744.0,1372.800049,84.417603,460.799988,3780.0,12979.200195,89.680801
73,10588.799805,2784.0,5.2,32.559601,3936.0,13860.0,1393.599976,85.157204,460.799988,3840.0,13104.0,90.661201
74,10732.799805,2812.0,15.6,32.972401,3936.0,13992.0,1398.800049,86.120399,432.0,3892.0,13254.799805,91.719002
75,10867.200195,2832.0,10.4,33.368,3984.0,14132.0,1409.199951,86.9804,480.0,3920.0,13400.400391,92.4758
76,10953.599609,2880.0,15.6,33.8582,4003.199951,14228.0,1430.0,87.763,480.0,3956.0,13587.599609,93.619598
77,11145.599609,2920.0,5.2,34.253799,4070.399902,14336.0,1440.400024,88.597198,470.399994,4020.0,13702.0,94.488197
78,11299.200195,2940.0,15.6,34.658001,4060.800049,14496.0,1456.0,89.353996,480.0,4048.0,13837.200195,95.356796
79,11433.599609,2980.0,15.6,35.131001,4099.200195,14600.0,1476.800049,90.1968,451.200012,4088.0,13930.799805,96.268402
80,11558.400391,3024.0,15.6,35.578201,4147.200195,14720.0,1497.599976,90.970802,470.399994,4104.0,14112.799805,97.326202
81,11712.0,3056.0,10.4,36.034,4195.200195,14868.0,1513.199951,91.719002,499.200012,4156.0,14248.0,98.332397
82,11836.799805,3100.0,15.6,36.498402,4214.399902,14976.0,1560.0,92.587601,499.200012,4204.0,14341.599609,99.226799
83,11961.599609,3132.0,10.4,36.868198,4252.799805,15092.0,1570.400024,93.318604,508.799988,4224.0,14456.0,100.017998
84,12057.599609,3144.0,10.4,37.2724,4262.399902,15180.0,1565.199951,94.204399,508.799988,4288.0,14612.0,101.015602
85,12192.0,3196.0,15.6,37.667999,4300.799805,15332.0,1591.199951,94.883797,528.0,4316.0,14742.0,101.901398
86,12345.599609,3240.0,15.6,38.201199,4300.799805,15432.0,1606.800049,95.709396,518.400024,4348.0,14882.400391,102.683998
87,12499.200195,3260.0,20.799999,38.502201,4358.399902,15572.0,1622.400024,96.560799,556.799988,4400.0,15038.400391,103.776199
88,12604.799805,3308.0,10.4,38.966599,4387.200195,15680.0,1638.0,97.326202,537.599976,4436.0,15116.400391,104.575996
89,12758.400391,3340.0,15.6,39.405201,4435.200195,15796.0,1648.400024,97.859398,547.200012,4480.0,15303.599609,105.453201
90,12854.400391,3376.0,20.799999,39.835201,4454.399902,15924.0,1684.800049,98.925797,566.400024,4524.0,15444.0,106.502403
91,13027.200195,3400.0,10.4,40.222198,4473.600098,16004.0,1705.599976,99.570801,537.599976,4556.0,15542.799805,107.353798
92,13190.400391,3440.0,20.799999,40.6436,4473.600098,16172.0,1731.599976,100.353401,556.799988,4604.0,15667.599609,108.256798
93,13315.200195,3480.0,10.4,40.987598,4531.200195,16272.0,1721.199951,101.136002,556.799988,4636.0,15823.599609,109.091003
94,13440.0,3504.0,20.799999,41.452,4531.200195,16368.0,1726.400024,101.823997,556.799988,4656.0,15932.799805,109.994003
95,13488.0,3540.0,20.799999,41.839001,4569.600098,16444.0,1752.400024,102.546402,576.0,4712.0,15995.200195,110.467003
96,13660.799805,3564.0,10.4,42.200199,4598.399902,16580.0,1768.0,103.397797,576.0,4752.0,16156.400391,111.447403
97,13785.599609,3604.0,10.4,42.7248,4646.399902,16660.0,1799.199951,104.077202,566.400024,4780.0,16270.799805,112.419197
98,13891.200195,3632.0,20.799999,43.120399,4627.200195,16800.0,1814.800049,104.6362,576.0,4820.0,16432.0,113.485603
99,14073.599609,3688.0,15.6,43.584801,4665.600098,16904.0,1804.400024,105.582199,576.0,4852.0,16504.800781,114.242401
100,14208.0,3708.0,5.2,44.006199,4742.399902,17016.0,1851.199951,106.175598,595.200012,4896.0,16686.800781,114.990601
101,14265.599609,3736.0,15.6,44.375999,4752.0,17108.0,1866.800049,106.906601,595.200012,4940.0,16806.400391,115.8936
102,14486.400391,3764.0,31.200001,44.771599,4800.0,17236.0,1882.400024,107.740799,595.200012,4968.0,16941.599609,116.813797
103,14582.400391,3812.0,20.799999,45.253201,4800.0,17308.0,1898.0,108.377197,614.400024,4996.0,17056.0,117.518997
104,14659.200195,3828.0,31.200001,45.580002,4848.0,17404.0,1924.0,109.151199,604.799988,5012.0,17165.199219,118.353203
105,14851.200195,3876.0,15.6,46.053001,4876.799805,17524.0,1924.0,110.002602,595.200012,5064.0,17284.800781,119.170197
106,14899.200195,3892.0,15.6,46.508801,4896.0,17620.0,1944.800049,110.4842,633.599976,5104.0,17420.0,120.073196
107,15043.200195,3936.0,10.4,46.9044,4867.200195,17748.0,1955.199951,111.404404,624.0,5152.0,17534.400391,121.001999
108,15264.0,3968.0,5.2,47.257,4934.399902,17828.0,1981.199951,112.040802,604.799988,5180.0,17643.599609,121.887802
109,15312.0,3996.0,5.2,47.644001,4963.200195,17912.0,2002.0,112.780403,624.0,5216.0,17763.199219,122.636002
110,15456.0,4028.0,10.4,48.0998,4972.799805,18056.0,2017.599976,113.459801,633.599976,5256.0,17810.0,123.530403
111,15609.599609,4048.0,20.799999,48.486801,5030.399902,18120.0,2028.0,113.941399,643.200012,5280.0,17997.199219,124.183998
112,15744.0,4112.0,20.799999,48.977001,5049.600098,18248.0,2043.599976,114.698196,624.0,5332.0,18127.199219,125.095596
113,15868.799805,4132.0,5.2,49.407001,5078.399902,18364.0,2069.600098,115.489403,643.200012,5356.0,18200.0,125.886803
114,15984.0,4156.0,31.200001,49.793999,5107.200195,18468.0,2085.199951,116.151604,643.200012,5400.0,18330.0,126.652199
115,16166.400391,4188.0,26.0,50.223999,5145.600098,18556.0,2095.600098,116.8396,633.599976,5436.0,18475.599609,127.538002
116,16272.0,4240.0,20.799999,50.679798,5145.600098,18668.0,2116.399902,117.527603,662.400024,5460.0,18569.199219,128.208801
117,16377.599609,4260.0,20.799999,51.0238,5184.0,18752.0,2126.800049,118.275803,681.599976,5520.0,18683.599609,129.008606
118,16425.599609,4292.0,15.6,51.428001,5203.200195,18876.0,2137.199951,118.723,662.400024,5524.0,18735.599609,130.0578
119,16560.0,4316.0,20.799999,51.771999,5193.600098,18928.0,2163.199951,119.540001,681.599976,5572.0,18907.199219,130.677002
120,16713.599609,4352.0,20.799999,52.244999,5222.399902,19036.0,2184.0,120.038803,662.400024,5604.0,18990.400391,131.476807
121,16857.599609,4356.0,20.799999,52.563202,5260.799805,19128.0,2194.399902,120.666603,681.599976,5628.0,19130.800781,132.164795
122,17001.599609,4412.0,15.6,53.001801,5241.600098,19208.0,2204.800049,121.535202,710.400024,5676.0,19250.400391,133.102203
123,17088.0,4432.0,20.799999,53.449001,5270.399902,19356.0,2236.0,122.077003,672.0,5712.0,19364.800781,133.841797
124,17251.199219,4488.0,20.799999,53.879002,5299.200195,19408.0,2236.0,122.722,700.799988,5744.0,19401.199219,134.693207
125,17376.0,4512.0,15.6,54.1628,5347.200195,19492.0,2267.199951,123.366997,710.400024,5784.0,19583.199219,135.4328
126,17481.599609,4540.0,5.2,54.678799,5366.399902,19632.0,2262.0,124.106598,700.799988,5824.0,19697.599609,136.241196
127,17558.400391,4584.0,20.799999,55.1432,5366.399902,19720.0,2319.199951,124.820396,729.599976,5852.0,19817.199219,137.058197
128,17769.599609,4600.0,20.799999,55.547401,5414.399902,19772.0,2324.399902,125.181602,720.0,5892.0,19952.400391,137.987
129,17904.0,4632.0,15.6,55.900002,5452.799805,19880.0,2319.199951,125.955597,720.0,5928.0,20040.800781,138.761002
130,18038.400391,4644.0,20.799999,56.312801,5472.0,19956.0,2350.399902,126.721001,739.200012,5964.0,20144.800781,139.474792
131,18115.199219,4692.0,26.0,56.725601,5539.200195,20076.0,2355.600098,127.262802,720.0,5992.0,20311.199219,140.266006
132,18278.400391,4704.0,31.200001,57.078201,5539.200195,20176.0,2360.800049,127.813202,739.200012,6036.0,20410.0,141.272202
133,18326.400391,4752.0,15.6,57.473801,5558.399902,20236.0,2392.0,128.329193,748.799988,6052.0,20493.199219,141.925797
134,18441.599609,4780.0,10.4,57.8092,5577.600098,20340.0,2407.600098,129.171997,729.599976,6092.0,20602.400391,142.648193
135,18576.0,4828.0,10.4,58.273602,5587.200195,20408.0,2428.399902,129.722397,729.599976,6124.0,20711.599609,143.387802
136,18729.599609,4848.0,15.6,58.780998,5625.600098,20520.0,2444.0,130.436203,748.799988,6180.0,20852.0,144.058594
137,18825.599609,4860.0,5.2,59.219601,5644.799805,20608.0,2464.800049,131.012405,748.799988,6192.0,20919.599609,144.953003
138,19008.0,4900.0,20.799999,59.529202,5635.200195,20688.0,2470.0,131.597198,777.599976,6232.0,21080.800781,145.6754
139,19084.800781,4924.0,26.0,59.9076,5683.200195,20768.0,2496.0,132.311005,748.799988,6264.0,21153.599609,146.457993
140,19219.199219,4956.0,15.6,60.3634,5712.0,20872.0,2501.199951,132.930206,768.0,6312.0,21236.800781,147.180405
141,19363.199219,4988.0,26.0,60.638599,5740.799805,20956.0,2522.0,133.377396,777.599976,6356.0,21372.0,148.023193
142,19420.800781,5024.0,20.799999,61.077202,5740.799805,21016.0,2532.399902,134.160004,758.400024,6376.0,21476.0,148.668198
143,19555.199219,5064.0,26.0,61.550201,5731.200195,21128.0,2568.800049,134.753403,777.599976,6416.0,21522.800781,149.382004
144,19670.400391,5080.0,15.6,61.902802,5779.200195,21208.0,2563.600098,135.286606,777.599976,6460.0,21668.400391,150.087204
145,19795.199219,5100.0,26.0,62.264,5779.200195,21312.0,2600.0,135.880005,787.200012,6488.0,21788.0,150.861206
146,19958.400391,5128.0,15.6,62.728401,5846.399902,21396.0,2615.600098,136.344406,796.799988,6500.0,21881.599609,151.463196
147,20016.0,5172.0,20.799999,63.003601,5856.0,21460.0,2626.0,137.049606,796.799988,6556.0,21985.599609,152.331802
148,20102.400391,5176.0,31.200001,63.416401,5865.600098,21552.0,2636.399902,137.643005,816.0,6560.0,22094.800781,153.105804
149,20246.400391,5228.0,31.200001,63.829201,5894.399902,21628.0,2652.0,138.373993,796.799988,6580.0,22198.800781,153.656204
150,20371.199219,5240.0,20.799999,64.216202,5913.600098,21756.0,2662.399902,138.932999,816.0,6644.0,22250.800781,154.490402
151,20486.400391,5268.0,31.200001,64.628998,5904.0,21824.0,2657.199951,139.388794,816.0,6668.0,22401.599609,155.333206
152,20620.800781,5312.0,31.200001,64.981598,5952.0,21872.0,2704.0,139.921997,825.599976,6716.0,22510.800781,155.806198
153,20707.199219,5348.0,31.200001,65.403,6019.200195,21972.0,2714.399902,140.678802,835.200012,6748.0,22594.0,156.477005
154,20841.599609,5356.0,15.6,65.7556,6019.200195,22068.0,2724.800049,141.151794,844.799988,6768.0,22718.800781,157.233795
155,20985.599609,5360.0,26.0,66.125397,6048.0,22164.0,2745.600098,141.917206,835.200012,6808.0,22786.400391,158.102402
156,21043.199219,5416.0,20.799999,66.503799,6086.399902,22256.0,2761.199951,142.441803,816.0,6812.0,22890.400391,158.773193
157,21196.800781,5448.0,20.799999,66.882202,6076.799805,22316.0,2771.600098,142.880402,806.400024,6848.0,23030.800781,159.444
158,21321.599609,5492.0,20.799999,67.166,6115.200195,22420.0,2792.399902,143.6716,835.200012,6908.0,23056.800781,160.175003
159,21427.199219,5512.0,26.0,67.596001,6124.799805,22472.0,2818.399902,144.0242,844.799988,6928.0,23197.199219,160.914597
160,21504.0,5548.0,31.200001,68.077599,6115.200195,22568.0,2839.199951,144.651993,873.599976,6952.0,23254.400391,161.413406
161,21648.0,5564.0,26.0,68.335602,6163.200195,22644.0,2839.199951,145.228195,854.400024,6996.0,23368.800781,162.127197
162,21763.199219,5572.0,31.200001,68.843002,6163.200195,22720.0,2844.399902,145.709793,864.0,7048.0,23446.800781,162.712006
163,21849.599609,5608.0,31.200001,69.230003,6192.0,22744.0,2854.800049,146.406403,854.400024,7052.0,23561.199219,163.666595
164,21964.800781,5628.0,15.6,69.634201,6201.600098,22868.0,2896.399902,146.896606,854.400024,7112.0,23675.599609,164.242798
165,22108.800781,5676.0,31.200001,69.883598,6249.600098,22976.0,2891.199951,147.472794,883.200012,7128.0,23748.400391,165.042603
166,22156.800781,5680.0,20.799999,70.262001,6268.799805,23044.0,2927.600098,148.023193,854.400024,7148.0,23852.400391,165.679001
167,22272.0,5732.0,31.200001,70.743599,6288.0,23144.0,2922.399902,148.651001,883.200012,7188.0,23940.800781,166.349792
168,22416.0,5752.0,36.400002,71.122002,6297.600098,23168.0,2943.199951,149.132599,873.599976,7216.0,24003.199219,166.805603
169,22502.400391,5764.0,20.799999,71.466003,6307.200195,23292.0,2979.600098,149.605606,892.799988,7276.0,24128.0,167.699997
170,22550.400391,5796.0,15.6,71.723999,6307.200195,23324.0,2984.800049,150.233398,873.599976,7276.0,24268.400391,168.224594
171,22752.0,5800.0,26.0,71.982002,6374.399902,23440.0,3005.600098,150.938599,912.0,7308.0,24351.599609,169.033005
172,22800.0,5844.0,36.400002,72.472198,6364.799805,23476.0,3021.199951,151.179398,892.799988,7364.0,24450.400391,169.617798
173,22924.800781,5868.0,26.0,72.807602,6374.399902,23576.0,3016.0,151.643799,912.0,7400.0,24476.400391,170.400406
